% Pose without folding and reset (log_20240214_123425.985/log_pose_abs.txt)
% 1 	Time (sec)
% 2,3 	Position x,y (m)
% 4 	heading (rad)
% 5 	Driven distance (m) - signed
% 6 	Turned angle (rad) - signed
1707910466.7644 0.000 0.000 0.0000 0.000 0.0000
1707910466.7713 0.000 0.000 0.0000 0.000 0.0000
1707910466.7796 0.000 0.000 0.0000 0.000 0.0000
1707910466.7875 0.000 0.000 0.0000 0.000 0.0000
1707910466.7964 0.000 -0.000 -0.0015 0.000 -0.0015
1707910466.8045 0.001 0.000 0.0073 0.001 0.0073
1707910466.8123 0.003 0.000 0.0073 0.003 0.0073
1707910466.8198 0.005 0.000 0.0044 0.005 0.0044
1707910466.8279 0.006 0.000 0.0044 0.006 0.0044
1707910466.8358 0.007 0.000 0.0044 0.007 0.0044
1707910466.8435 0.010 0.000 0.0044 0.010 0.0044
1707910466.8517 0.012 0.000 0.0029 0.012 0.0029
1707910466.8605 0.014 0.000 0.0029 0.014 0.0029
1707910466.8684 0.017 0.000 0.0044 0.017 0.0044
1707910466.8757 0.020 0.000 0.0044 0.020 0.0044
1707910466.8843 0.024 0.000 0.0015 0.024 0.0015
1707910466.8918 0.027 0.000 0.0029 0.027 0.0029
1707910466.8999 0.030 0.000 0.0029 0.030 0.0029
1707910466.9078 0.034 0.000 0.0029 0.034 0.0029
1707910466.9164 0.037 0.000 0.0015 0.037 0.0015
1707910466.9236 0.042 0.000 -0.0000 0.042 -0.0000
1707910466.9322 0.046 0.000 -0.0000 0.046 -0.0000
1707910466.9398 0.050 0.000 0.0015 0.050 0.0015
1707910466.9478 0.055 0.000 -0.0000 0.055 -0.0000
1707910466.9558 0.059 0.000 -0.0000 0.059 -0.0000
1707910466.9644 0.063 0.000 -0.0000 0.063 -0.0000
1707910466.9717 0.068 0.000 -0.0000 0.068 -0.0000
1707910466.9803 0.072 0.000 0.0015 0.072 0.0015
1707910466.9878 0.077 0.000 0.0015 0.077 0.0015
1707910466.9958 0.081 0.000 -0.0015 0.081 -0.0015
1707910467.0038 0.084 0.000 -0.0029 0.084 -0.0029
1707910467.0124 0.089 0.000 -0.0000 0.089 -0.0000
1707910467.0198 0.093 0.000 0.0029 0.093 0.0029
1707910467.0285 0.098 0.000 -0.0000 0.098 -0.0000
1707910467.0360 0.102 0.000 -0.0029 0.102 -0.0029
1707910467.0445 0.106 0.000 -0.0015 0.106 -0.0015
1707910467.0520 0.110 0.000 0.0044 0.110 0.0044
1707910467.0596 0.114 0.000 0.0015 0.114 0.0015
1707910467.0676 0.119 0.000 -0.0029 0.119 -0.0029
1707910467.0757 0.122 0.000 -0.0029 0.122 -0.0029
1707910467.0844 0.127 0.000 -0.0015 0.127 -0.0015
1707910467.0918 0.131 0.000 -0.0015 0.131 -0.0015
1707910467.0995 0.135 0.000 -0.0029 0.135 -0.0029
1707910467.1085 0.139 0.000 -0.0044 0.139 -0.0044
1707910467.1156 0.143 0.000 -0.0073 0.143 -0.0073
1707910467.1236 0.147 0.000 -0.0088 0.147 -0.0088
1707910467.1325 0.151 0.000 -0.0044 0.151 -0.0044
1707910467.1399 0.155 0.000 -0.0029 0.155 -0.0029
1707910467.1476 0.159 -0.000 -0.0044 0.159 -0.0044
1707910467.1565 0.163 -0.000 -0.0058 0.163 -0.0058
1707910467.1635 0.167 -0.000 -0.0058 0.167 -0.0058
1707910467.1724 0.171 -0.000 -0.0058 0.171 -0.0058
1707910467.1803 0.174 -0.000 -0.0073 0.174 -0.0073
1707910467.1884 0.179 -0.000 -0.0088 0.179 -0.0088
1707910467.1959 0.183 -0.000 -0.0073 0.183 -0.0073
1707910467.2045 0.186 -0.000 -0.0044 0.186 -0.0044
1707910467.2125 0.190 -0.000 -0.0044 0.190 -0.0044
1707910467.2204 0.195 -0.000 -0.0058 0.195 -0.0058
1707910467.2284 0.199 -0.000 -0.0058 0.199 -0.0058
1707910467.2363 0.203 -0.000 -0.0044 0.203 -0.0044
1707910467.2439 0.206 -0.000 -0.0000 0.206 -0.0000
1707910467.2525 0.210 -0.000 -0.0000 0.210 -0.0000
1707910467.2598 0.214 -0.000 -0.0015 0.214 -0.0015
1707910467.2681 0.219 -0.000 -0.0015 0.219 -0.0015
1707910467.2761 0.222 -0.000 -0.0015 0.222 -0.0015
1707910467.2843 0.226 -0.000 -0.0000 0.226 -0.0000
1707910467.2921 0.230 -0.000 0.0015 0.230 0.0015
1707910467.2999 0.235 -0.000 -0.0000 0.235 -0.0000
1707910467.3079 0.238 -0.000 -0.0015 0.238 -0.0015
1707910467.3161 0.242 -0.000 -0.0000 0.242 -0.0000
1707910467.3240 0.247 -0.000 0.0015 0.247 0.0015
1707910467.3322 0.251 -0.000 -0.0000 0.251 -0.0000
1707910467.3398 0.255 -0.000 -0.0015 0.255 -0.0015
1707910467.3475 0.259 -0.000 0.0015 0.259 0.0015
1707910467.3557 0.262 -0.000 0.0029 0.262 0.0029
1707910467.3638 0.266 -0.000 0.0015 0.266 0.0015
1707910467.3716 0.271 -0.000 -0.0000 0.271 -0.0000
1707910467.3797 0.275 -0.000 0.0015 0.275 0.0015
1707910467.3883 0.278 -0.000 0.0029 0.278 0.0029
1707910467.3958 0.282 -0.000 0.0029 0.282 0.0029
1707910467.4041 0.287 -0.000 0.0015 0.287 0.0015
1707910467.4116 0.291 -0.000 -0.0000 0.291 -0.0000
1707910467.4203 0.294 -0.000 0.0015 0.294 0.0015
1707910467.4283 0.298 -0.000 0.0029 0.298 0.0029
1707910467.4358 0.302 -0.000 0.0029 0.302 0.0029
1707910467.4443 0.307 -0.000 0.0015 0.307 0.0015
1707910467.4525 0.310 -0.000 0.0015 0.310 0.0015
1707910467.4600 0.314 -0.000 0.0015 0.314 0.0015
1707910467.4676 0.318 -0.000 0.0029 0.318 0.0029
1707910467.4759 0.322 -0.000 0.0044 0.322 0.0044
1707910467.4835 0.326 -0.000 0.0029 0.326 0.0029
1707910467.4922 0.330 -0.000 0.0015 0.330 0.0015
1707910467.4996 0.334 -0.000 0.0015 0.334 0.0015
1707910467.5082 0.338 -0.000 0.0015 0.338 0.0015
1707910467.5157 0.342 -0.000 0.0015 0.342 0.0015
1707910467.5241 0.346 -0.000 0.0015 0.346 0.0015
1707910467.5316 0.350 -0.000 0.0015 0.350 0.0015
1707910467.5396 0.354 -0.000 0.0015 0.354 0.0015
1707910467.5477 0.357 -0.000 0.0029 0.357 0.0029
1707910467.5563 0.361 -0.000 -0.0000 0.361 -0.0000
1707910467.5638 0.366 -0.000 -0.0000 0.366 -0.0000
1707910467.5722 0.370 -0.000 -0.0000 0.370 -0.0000
1707910467.5797 0.373 -0.000 0.0015 0.373 0.0015
1707910467.5877 0.377 -0.000 0.0015 0.377 0.0015
1707910467.5957 0.381 -0.000 0.0015 0.381 0.0015
1707910467.6044 0.386 -0.000 -0.0000 0.386 -0.0000
1707910467.6124 0.390 -0.000 -0.0029 0.390 -0.0029
1707910467.6200 0.394 -0.000 -0.0000 0.394 -0.0000
1707910467.6280 0.398 -0.000 0.0029 0.398 0.0029
1707910467.6356 0.402 -0.000 -0.0000 0.402 -0.0000
1707910467.6436 0.406 -0.000 -0.0015 0.406 -0.0015
1707910467.6523 0.410 -0.000 -0.0000 0.410 -0.0000
1707910467.6599 0.414 -0.000 0.0015 0.414 0.0015
1707910467.6679 0.418 -0.000 0.0015 0.418 0.0015
1707910467.6762 0.422 -0.000 -0.0000 0.422 -0.0000
1707910467.6839 0.426 -0.000 -0.0015 0.426 -0.0015
1707910467.6920 0.430 -0.000 -0.0000 0.430 -0.0000
1707910467.6997 0.434 -0.000 -0.0000 0.434 -0.0000
1707910467.7085 0.438 -0.000 -0.0015 0.438 -0.0015
1707910467.7156 0.442 -0.000 -0.0029 0.442 -0.0029
1707910467.7239 0.446 -0.000 -0.0029 0.446 -0.0029
1707910467.7315 0.450 -0.000 -0.0015 0.450 -0.0015
1707910467.7396 0.454 -0.000 -0.0000 0.454 -0.0000
1707910467.7483 0.458 -0.000 -0.0029 0.458 -0.0029
1707910467.7557 0.462 -0.000 -0.0029 0.462 -0.0029
1707910467.7642 0.466 -0.000 -0.0015 0.466 -0.0015
1707910467.7725 0.470 -0.000 -0.0000 0.470 -0.0000
1707910467.7797 0.474 -0.000 -0.0015 0.474 -0.0015
1707910467.7884 0.478 -0.000 -0.0029 0.478 -0.0029
1707910467.7955 0.482 -0.000 -0.0029 0.482 -0.0029
1707910467.8038 0.486 -0.000 -0.0015 0.486 -0.0015
1707910467.8118 0.490 -0.000 0.0015 0.490 0.0015
1707910467.8201 0.494 -0.000 -0.0015 0.494 -0.0015
1707910467.8282 0.498 -0.000 -0.0029 0.498 -0.0029
1707910467.8361 0.502 -0.000 -0.0015 0.502 -0.0015
1707910467.8442 0.506 -0.000 -0.0000 0.506 -0.0000
1707910467.8523 0.509 -0.000 -0.0029 0.509 -0.0029
1707910467.8603 0.514 -0.000 -0.0015 0.514 -0.0015
1707910467.8683 0.518 -0.000 -0.0000 0.518 -0.0000
1707910467.8756 0.522 -0.000 -0.0000 0.522 -0.0000
1707910467.8844 0.525 -0.000 -0.0015 0.525 -0.0015
1707910467.8925 0.529 -0.000 -0.0015 0.529 -0.0015
1707910467.8998 0.534 -0.000 -0.0015 0.534 -0.0015
1707910467.9076 0.538 -0.000 -0.0029 0.538 -0.0029
1707910467.9157 0.541 -0.000 -0.0015 0.541 -0.0015
1707910467.9239 0.545 -0.000 -0.0000 0.545 -0.0000
1707910467.9318 0.549 -0.000 0.0015 0.549 0.0015
1707910467.9399 0.554 -0.000 -0.0000 0.554 -0.0000
1707910467.9483 0.558 -0.000 -0.0000 0.558 -0.0000
1707910467.9560 0.561 -0.000 -0.0000 0.561 -0.0000
1707910467.9642 0.565 -0.000 0.0015 0.565 0.0015
1707910467.9726 0.570 -0.000 0.0029 0.570 0.0029
1707910467.9803 0.574 -0.000 0.0015 0.574 0.0015
1707910467.9884 0.578 -0.000 -0.0015 0.578 -0.0015
1707910467.9958 0.582 -0.000 -0.0000 0.582 -0.0000
1707910468.0035 0.585 -0.000 0.0029 0.585 0.0029
1707910468.0116 0.589 -0.000 0.0015 0.589 0.0015
1707910468.0200 0.593 -0.000 0.0015 0.593 0.0015
1707910468.0277 0.597 -0.000 0.0015 0.597 0.0015
1707910468.0361 0.602 -0.000 0.0015 0.602 0.0015
1707910468.0442 0.606 -0.000 0.0015 0.606 0.0015
1707910468.0520 0.609 -0.000 0.0015 0.609 0.0015
1707910468.0601 0.613 -0.000 0.0015 0.613 0.0015
1707910468.0682 0.618 -0.000 0.0015 0.618 0.0015
1707910468.0762 0.622 -0.000 0.0015 0.622 0.0015
1707910468.0836 0.626 -0.000 -0.0000 0.626 -0.0000
1707910468.0917 0.629 -0.000 -0.0015 0.629 -0.0015
1707910468.1005 0.633 -0.000 0.0015 0.633 0.0015
1707910468.1076 0.637 -0.000 0.0015 0.637 0.0015
1707910468.1158 0.641 -0.000 0.0015 0.641 0.0015
1707910468.1239 0.645 -0.000 -0.0000 0.645 -0.0000
1707910468.1321 0.649 -0.000 -0.0000 0.649 -0.0000
1707910468.1402 0.653 -0.000 -0.0000 0.653 -0.0000
1707910468.1479 0.657 -0.000 -0.0000 0.657 -0.0000
1707910468.1561 0.661 -0.000 -0.0000 0.661 -0.0000
1707910468.1641 0.665 -0.000 -0.0000 0.665 -0.0000
1707910468.1723 0.669 -0.000 -0.0000 0.669 -0.0000
1707910468.1805 0.673 -0.000 -0.0000 0.673 -0.0000
1707910468.1875 0.678 -0.000 -0.0000 0.678 -0.0000
1707910468.1964 0.681 -0.000 -0.0029 0.681 -0.0029
1707910468.2045 0.685 -0.000 -0.0015 0.685 -0.0015
1707910468.2116 0.689 -0.000 -0.0000 0.689 -0.0000
1707910468.2197 0.693 -0.000 0.0015 0.693 0.0015
1707910468.2277 0.697 -0.000 -0.0000 0.697 -0.0000
1707910468.2358 0.701 -0.000 -0.0029 0.701 -0.0029
1707910468.2436 0.705 -0.000 -0.0015 0.705 -0.0015
1707910468.2517 0.709 -0.000 0.0015 0.709 0.0015
1707910468.2603 0.713 -0.000 -0.0000 0.713 -0.0000
1707910468.2681 0.717 -0.000 -0.0015 0.717 -0.0015
1707910468.2763 0.721 -0.000 -0.0000 0.721 -0.0000
1707910468.2845 0.725 -0.000 0.0015 0.725 0.0015
1707910468.2923 0.729 -0.000 -0.0000 0.729 -0.0000
1707910468.3004 0.733 -0.000 0.0015 0.733 0.0015
1707910468.3077 0.737 -0.000 0.0015 0.737 0.0015
1707910468.3165 0.741 -0.000 -0.0000 0.741 -0.0000
1707910468.3239 0.745 -0.000 -0.0029 0.745 -0.0029
1707910468.3320 0.749 -0.000 -0.0015 0.749 -0.0015
1707910468.3398 0.753 -0.000 0.0015 0.753 0.0015
1707910468.3479 0.757 -0.000 0.0015 0.757 0.0015
1707910468.3562 0.761 -0.000 -0.0000 0.761 -0.0000
1707910468.3640 0.765 -0.000 -0.0000 0.765 -0.0000
1707910468.3723 0.769 -0.000 -0.0000 0.769 -0.0000
1707910468.3804 0.773 -0.000 -0.0000 0.773 -0.0000
1707910468.3881 0.777 -0.000 0.0015 0.777 0.0015
1707910468.3965 0.781 -0.000 -0.0000 0.781 -0.0000
1707910468.4035 0.785 -0.000 -0.0015 0.785 -0.0015
1707910468.4123 0.789 -0.000 -0.0015 0.789 -0.0015
1707910468.4196 0.793 -0.000 -0.0000 0.793 -0.0000
1707910468.4277 0.797 -0.000 0.0015 0.797 0.0015
1707910468.4356 0.801 -0.000 -0.0000 0.801 -0.0000
1707910468.4439 0.805 -0.000 -0.0015 0.805 -0.0015
1707910468.4521 0.809 -0.000 -0.0015 0.809 -0.0015
1707910468.4599 0.813 -0.000 -0.0015 0.813 -0.0015
1707910468.4679 0.817 -0.000 0.0015 0.817 0.0015
1707910468.4759 0.821 -0.000 0.0015 0.821 0.0015
1707910468.4845 0.825 -0.000 -0.0015 0.825 -0.0015
1707910468.4921 0.829 -0.000 -0.0029 0.829 -0.0029
1707910468.4997 0.833 -0.000 0.0015 0.833 0.0015
1707910468.5078 0.837 -0.000 0.0015 0.837 0.0015
1707910468.5165 0.840 -0.000 -0.0000 0.840 -0.0000
1707910468.5245 0.844 -0.000 -0.0000 0.844 -0.0000
1707910468.5318 0.849 -0.000 -0.0000 0.849 -0.0000
1707910468.5406 0.853 -0.000 -0.0000 0.853 -0.0000
1707910468.5481 0.856 -0.000 -0.0000 0.856 -0.0000
1707910468.5562 0.860 -0.000 -0.0000 0.860 -0.0000
1707910468.5638 0.864 -0.000 -0.0000 0.864 -0.0000
1707910468.5717 0.869 -0.000 -0.0000 0.869 -0.0000
1707910468.5801 0.872 -0.000 -0.0015 0.872 -0.0015
1707910468.5877 0.876 -0.000 -0.0015 0.876 -0.0015
1707910468.5964 0.880 -0.000 -0.0015 0.880 -0.0015
1707910468.6045 0.885 -0.000 -0.0000 0.885 -0.0000
1707910468.6121 0.889 -0.000 -0.0000 0.889 -0.0000
1707910468.6203 0.893 -0.000 -0.0015 0.893 -0.0015
1707910468.6284 0.896 -0.000 -0.0029 0.896 -0.0029
1707910468.6360 0.900 -0.000 -0.0015 0.900 -0.0015
1707910468.6436 0.905 -0.000 -0.0000 0.905 -0.0000
1707910468.6516 0.909 -0.000 0.0015 0.909 0.0015
1707910468.6602 0.912 -0.000 0.0015 0.912 0.0015
1707910468.6682 0.916 -0.000 -0.0000 0.916 -0.0000
1707910468.6755 0.921 -0.000 -0.0029 0.921 -0.0029
1707910468.6842 0.925 -0.000 -0.0015 0.925 -0.0015
1707910468.6917 0.928 -0.000 -0.0000 0.928 -0.0000
1707910468.6998 0.932 -0.000 0.0029 0.932 0.0029
1707910468.7084 0.936 -0.000 0.0015 0.936 0.0015
1707910468.7164 0.941 -0.000 -0.0015 0.941 -0.0015
1707910468.7237 0.945 -0.000 -0.0029 0.945 -0.0029
1707910468.7324 0.948 -0.000 -0.0015 0.948 -0.0015
1707910468.7399 0.952 -0.000 0.0015 0.952 0.0015
1707910468.7480 0.956 -0.000 0.0015 0.956 0.0015
1707910468.7563 0.960 -0.000 0.0015 0.960 0.0015
1707910468.7639 0.964 -0.000 -0.0015 0.964 -0.0015
1707910468.7723 0.968 -0.000 -0.0000 0.968 -0.0000
1707910468.7798 0.972 -0.000 0.0029 0.972 0.0029
1707910468.7886 0.975 -0.000 0.0044 0.975 0.0044
1707910468.7956 0.975 -0.000 0.0044 0.975 0.0044
1707910468.8035 0.974 -0.000 0.0029 0.974 0.0029
1707910468.8122 0.972 -0.000 0.0015 0.972 0.0015
1707910468.8195 0.970 -0.000 -0.0000 0.970 -0.0000
1707910468.8282 0.969 -0.000 0.0015 0.969 0.0015
1707910468.8357 0.967 -0.000 0.0029 0.967 0.0029
1707910468.8442 0.965 -0.000 0.0029 0.965 0.0029
1707910468.8518 0.963 -0.000 0.0029 0.963 0.0029
1707910468.8605 0.960 -0.000 0.0015 0.960 0.0015
1707910468.8685 0.958 -0.000 -0.0000 0.958 -0.0000
1707910468.8764 0.956 -0.000 -0.0000 0.956 -0.0000
1707910468.8839 0.952 -0.000 -0.0000 0.952 -0.0000
1707910468.8924 0.949 -0.000 -0.0000 0.949 -0.0000
1707910468.8999 0.946 -0.000 -0.0000 0.946 -0.0000
1707910468.9085 0.943 -0.000 -0.0000 0.943 -0.0000
1707910468.9155 0.940 -0.000 -0.0000 0.940 -0.0000
1707910468.9245 0.937 -0.000 -0.0000 0.937 -0.0000
1707910468.9320 0.933 -0.000 -0.0000 0.933 -0.0000
1707910468.9405 0.930 -0.000 -0.0000 0.930 -0.0000
1707910468.9481 0.926 -0.000 -0.0000 0.926 -0.0000
1707910468.9558 0.922 -0.000 -0.0000 0.922 -0.0000
1707910468.9639 0.919 -0.000 -0.0000 0.919 -0.0000
1707910468.9720 0.915 -0.000 -0.0000 0.915 -0.0000
1707910468.9802 0.912 -0.000 -0.0000 0.912 -0.0000
1707910468.9883 0.908 -0.000 -0.0015 0.908 -0.0015
1707910468.9960 0.904 -0.000 -0.0015 0.904 -0.0015
1707910469.0038 0.900 -0.000 -0.0015 0.900 -0.0015
1707910469.0119 0.896 -0.000 -0.0015 0.896 -0.0015
1707910469.0198 0.893 -0.000 -0.0015 0.893 -0.0015
1707910469.0278 0.889 -0.000 -0.0000 0.889 -0.0000
1707910469.0359 0.885 -0.000 -0.0000 0.885 -0.0000
1707910469.0446 0.881 -0.000 -0.0000 0.881 -0.0000
1707910469.0522 0.877 -0.000 -0.0029 0.877 -0.0029
1707910469.0603 0.873 -0.000 -0.0029 0.873 -0.0029
1707910469.0680 0.869 -0.000 -0.0000 0.869 -0.0000
1707910469.0762 0.865 -0.000 0.0015 0.865 0.0015
1707910469.0844 0.861 -0.000 -0.0000 0.861 -0.0000
1707910469.0920 0.857 -0.000 -0.0029 0.857 -0.0029
1707910469.0997 0.853 -0.000 -0.0029 0.853 -0.0029
1707910469.1077 0.850 -0.000 -0.0015 0.850 -0.0015
1707910469.1159 0.846 -0.000 -0.0015 0.846 -0.0015
1707910469.1238 0.842 -0.000 -0.0000 0.842 -0.0000
1707910469.1319 0.838 -0.000 -0.0000 0.838 -0.0000
1707910469.1396 0.834 -0.000 -0.0015 0.834 -0.0015
1707910469.1484 0.830 -0.000 -0.0000 0.830 -0.0000
1707910469.1565 0.826 -0.000 -0.0000 0.826 -0.0000
1707910469.1645 0.822 -0.000 -0.0015 0.822 -0.0015
1707910469.1726 0.818 -0.000 -0.0000 0.818 -0.0000
1707910469.1796 0.814 -0.000 0.0015 0.814 0.0015
1707910469.1884 0.810 -0.000 0.0015 0.810 0.0015
1707910469.1960 0.806 -0.000 0.0015 0.806 0.0015
1707910469.2035 0.801 -0.000 0.0015 0.801 0.0015
1707910469.2124 0.797 -0.000 -0.0000 0.797 -0.0000
1707910469.2203 0.793 -0.000 -0.0000 0.793 -0.0000
1707910469.2284 0.789 -0.000 0.0015 0.789 0.0015
1707910469.2360 0.784 -0.000 -0.0000 0.784 -0.0000
1707910469.2436 0.780 -0.000 -0.0000 0.780 -0.0000
1707910469.2521 0.776 -0.000 0.0015 0.776 0.0015
1707910469.2601 0.772 -0.000 0.0015 0.772 0.0015
1707910469.2677 0.768 -0.000 0.0029 0.768 0.0029
1707910469.2761 0.763 -0.000 0.0015 0.763 0.0015
1707910469.2837 0.759 -0.000 -0.0000 0.759 -0.0000
1707910469.2924 0.755 -0.000 0.0015 0.755 0.0015
1707910469.2999 0.751 -0.000 0.0044 0.751 0.0044
1707910469.3085 0.746 -0.000 0.0029 0.746 0.0029
1707910469.3162 0.742 -0.000 0.0015 0.742 0.0015
1707910469.3246 0.738 -0.000 -0.0015 0.738 -0.0015
1707910469.3322 0.734 -0.000 -0.0015 0.734 -0.0015
1707910469.3401 0.730 -0.000 -0.0000 0.730 -0.0000
1707910469.3482 0.726 -0.000 -0.0000 0.726 -0.0000
1707910469.3557 0.722 -0.000 -0.0015 0.722 -0.0015
1707910469.3644 0.718 -0.000 -0.0015 0.718 -0.0015
1707910469.3717 0.714 -0.000 -0.0000 0.714 -0.0000
1707910469.3804 0.710 -0.000 0.0015 0.710 0.0015
1707910469.3883 0.706 -0.000 -0.0000 0.706 -0.0000
1707910469.3963 0.701 -0.000 -0.0029 0.702 -0.0029
1707910469.4039 0.697 -0.000 -0.0015 0.697 -0.0015
1707910469.4125 0.693 -0.000 -0.0000 0.693 -0.0000
1707910469.4198 0.690 -0.000 0.0029 0.690 0.0029
1707910469.4284 0.686 -0.000 0.0015 0.686 0.0015
1707910469.4362 0.682 -0.000 -0.0029 0.682 -0.0029
1707910469.4443 0.678 -0.000 -0.0015 0.678 -0.0015
1707910469.4519 0.673 -0.000 0.0015 0.673 0.0015
1707910469.4596 0.669 -0.000 0.0015 0.669 0.0015
1707910469.4676 0.666 -0.000 -0.0000 0.666 -0.0000
1707910469.4760 0.662 -0.000 -0.0000 0.662 -0.0000
1707910469.4837 0.658 -0.000 0.0015 0.658 0.0015
1707910469.4919 0.654 -0.000 0.0029 0.654 0.0029
1707910469.4996 0.650 -0.000 0.0029 0.650 0.0029
1707910469.5083 0.646 -0.000 -0.0000 0.646 -0.0000
1707910469.5164 0.642 -0.000 -0.0015 0.642 -0.0015
1707910469.5236 0.638 -0.000 -0.0000 0.638 -0.0000
1707910469.5323 0.634 -0.000 0.0015 0.634 0.0015
1707910469.5404 0.630 -0.000 0.0015 0.630 0.0015
1707910469.5480 0.627 -0.000 -0.0000 0.627 -0.0000
1707910469.5556 0.622 -0.000 -0.0000 0.622 -0.0000
1707910469.5640 0.618 -0.000 0.0015 0.618 0.0015
1707910469.5719 0.614 -0.000 0.0029 0.614 0.0029
1707910469.5806 0.610 -0.000 0.0015 0.610 0.0015
1707910469.5876 0.606 -0.000 -0.0015 0.606 -0.0015
1707910469.5962 0.602 -0.000 -0.0000 0.602 -0.0000
1707910469.6038 0.598 -0.000 0.0029 0.598 0.0029
1707910469.6124 0.594 -0.000 0.0029 0.594 0.0029
1707910469.6205 0.590 -0.000 0.0015 0.590 0.0015
1707910469.6281 0.585 -0.000 -0.0000 0.585 -0.0000
1707910469.6362 0.581 -0.000 -0.0015 0.581 -0.0015
1707910469.6439 0.578 -0.000 -0.0000 0.578 -0.0000
1707910469.6516 0.574 -0.000 0.0015 0.574 0.0015
1707910469.6601 0.570 -0.000 0.0015 0.570 0.0015
1707910469.6677 0.566 -0.000 -0.0015 0.566 -0.0015
1707910469.6756 0.562 -0.000 -0.0029 0.562 -0.0029
1707910469.6837 0.558 -0.000 -0.0015 0.558 -0.0015
1707910469.6924 0.554 -0.000 -0.0000 0.554 -0.0000
1707910469.7003 0.550 -0.000 -0.0015 0.550 -0.0015
1707910469.7084 0.545 -0.000 -0.0015 0.545 -0.0015
1707910469.7160 0.542 -0.000 -0.0015 0.542 -0.0015
1707910469.7239 0.538 -0.000 -0.0015 0.538 -0.0015
1707910469.7320 0.534 -0.000 -0.0000 0.534 -0.0000
1707910469.7396 0.530 -0.000 -0.0015 0.530 -0.0015
1707910469.7477 0.526 -0.000 -0.0015 0.526 -0.0015
1707910469.7561 0.522 -0.000 -0.0000 0.522 -0.0000
1707910469.7637 0.519 -0.000 -0.0000 0.519 -0.0000
1707910469.7717 0.514 -0.000 -0.0000 0.514 -0.0000
1707910469.7800 0.510 -0.000 -0.0000 0.510 -0.0000
1707910469.7880 0.506 -0.000 -0.0000 0.506 -0.0000
1707910469.7961 0.502 -0.000 -0.0000 0.502 -0.0000
1707910469.8042 0.498 -0.000 -0.0000 0.498 -0.0000
1707910469.8118 0.494 -0.000 -0.0000 0.494 -0.0000
1707910469.8197 0.490 -0.000 -0.0000 0.490 -0.0000
1707910469.8280 0.486 -0.000 -0.0000 0.486 -0.0000
1707910469.8361 0.482 -0.000 -0.0000 0.482 -0.0000
1707910469.8437 0.478 -0.000 -0.0000 0.478 -0.0000
1707910469.8518 0.474 -0.000 0.0015 0.474 0.0015
1707910469.8596 0.470 -0.000 -0.0000 0.470 -0.0000
1707910469.8683 0.467 -0.000 -0.0015 0.467 -0.0015
1707910469.8758 0.463 -0.000 -0.0029 0.463 -0.0029
1707910469.8837 0.458 -0.000 -0.0015 0.458 -0.0015
1707910469.8923 0.454 -0.000 -0.0000 0.454 -0.0000
1707910469.9003 0.450 -0.000 0.0015 0.450 0.0015
1707910469.9078 0.446 -0.000 0.0015 0.446 0.0015
