% Pose without folding and reset (log_20240214_122537.350/log_pose_abs.txt)
% 1 	Time (sec)
% 2,3 	Position x,y (m)
% 4 	heading (rad)
% 5 	Driven distance (m) - signed
% 6 	Turned angle (rad) - signed
1707909937.7580 0.000 0.000 0.0000 0.000 0.0000
1707909937.7652 0.000 0.000 0.0000 0.000 0.0000
1707909937.7729 0.000 0.000 0.0000 0.000 0.0000
1707909937.7810 0.000 0.000 0.0029 0.000 0.0029
1707909937.7891 0.002 0.000 0.0044 0.002 0.0044
1707909937.7969 0.004 0.000 0.0073 0.004 0.0073
1707909937.8050 0.007 0.000 0.0073 0.007 0.0073
1707909937.8135 0.009 0.000 0.0102 0.009 0.0102
1707909937.8218 0.013 0.000 0.0102 0.013 0.0102
1707909937.8299 0.017 0.000 0.0102 0.017 0.0102
1707909937.8369 0.020 0.000 0.0117 0.020 0.0117
1707909937.8457 0.024 0.000 0.0146 0.024 0.0146
1707909937.8538 0.030 0.000 0.0146 0.030 0.0146
1707909937.8611 0.036 0.000 0.0146 0.036 0.0146
1707909937.8690 0.042 0.000 0.0131 0.042 0.0131
1707909937.8771 0.049 0.001 0.0131 0.049 0.0131
1707909937.8852 0.056 0.001 0.0161 0.056 0.0161
1707909937.8930 0.064 0.001 0.0146 0.064 0.0146
1707909937.9013 0.072 0.001 0.0117 0.072 0.0117
1707909937.9096 0.080 0.001 0.0117 0.080 0.0117
1707909937.9176 0.088 0.001 0.0117 0.088 0.0117
1707909937.9257 0.096 0.001 0.0102 0.096 0.0102
1707909937.9338 0.105 0.001 0.0088 0.105 0.0088
1707909937.9418 0.114 0.001 0.0073 0.114 0.0073
1707909937.9497 0.122 0.001 0.0073 0.122 0.0073
1707909937.9573 0.131 0.001 0.0073 0.131 0.0073
1707909937.9657 0.139 0.002 0.0058 0.139 0.0058
1707909937.9733 0.148 0.002 0.0044 0.148 0.0044
1707909937.9819 0.156 0.002 0.0015 0.156 0.0015
1707909937.9903 0.165 0.002 0.0015 0.165 0.0015
1707909937.9979 0.173 0.002 0.0015 0.173 0.0015
1707909938.0055 0.181 0.002 -0.0000 0.181 -0.0000
1707909938.0138 0.190 0.002 -0.0000 0.190 -0.0000
1707909938.0213 0.198 0.002 -0.0015 0.198 -0.0015
1707909938.0300 0.206 0.002 -0.0015 0.206 -0.0015
1707909938.0374 0.214 0.002 -0.0015 0.214 -0.0015
1707909938.0460 0.222 0.002 -0.0029 0.222 -0.0029
1707909938.0537 0.230 0.002 -0.0029 0.230 -0.0029
1707909938.0620 0.239 0.002 -0.0029 0.239 -0.0029
1707909938.0696 0.247 0.001 -0.0044 0.247 -0.0044
1707909938.0782 0.255 0.001 -0.0044 0.255 -0.0044
1707909938.0856 0.263 0.001 -0.0044 0.263 -0.0044
1707909938.0942 0.271 0.001 -0.0058 0.271 -0.0058
1707909938.1018 0.279 0.001 -0.0058 0.279 -0.0058
1707909938.1100 0.288 0.001 -0.0044 0.288 -0.0044
1707909938.1180 0.297 0.001 -0.0044 0.297 -0.0044
1707909938.1260 0.306 0.001 -0.0073 0.306 -0.0073
1707909938.1342 0.315 0.001 -0.0073 0.315 -0.0073
1707909938.1418 0.323 0.001 -0.0073 0.323 -0.0073
1707909938.1495 0.332 0.001 -0.0058 0.332 -0.0058
1707909938.1576 0.340 0.001 -0.0073 0.340 -0.0073
1707909938.1655 0.349 0.001 -0.0073 0.349 -0.0073
1707909938.1736 0.357 0.001 -0.0058 0.357 -0.0058
1707909938.1817 0.365 0.001 -0.0073 0.365 -0.0073
1707909938.1893 0.373 0.001 -0.0073 0.373 -0.0073
1707909938.1981 0.382 0.001 -0.0058 0.382 -0.0058
1707909938.2062 0.390 0.001 -0.0029 0.390 -0.0029
1707909938.2141 0.399 0.001 -0.0029 0.399 -0.0029
1707909938.2212 0.407 0.001 -0.0029 0.407 -0.0029
1707909938.2294 0.415 0.001 -0.0029 0.415 -0.0029
1707909938.2381 0.423 0.001 -0.0029 0.423 -0.0029
1707909938.2457 0.431 0.001 -0.0015 0.431 -0.0015
1707909938.2540 0.439 0.001 0.0000 0.440 0.0000
1707909938.2614 0.447 0.001 0.0000 0.447 0.0000
1707909938.2692 0.455 0.001 -0.0015 0.455 -0.0015
1707909938.2773 0.462 0.001 0.0000 0.462 0.0000
1707909938.2861 0.470 0.001 0.0000 0.470 0.0000
1707909938.2938 0.478 0.001 0.0044 0.478 0.0044
1707909938.3018 0.484 0.001 0.0073 0.484 0.0073
1707909938.3098 0.489 0.001 0.0044 0.489 0.0044
1707909938.3177 0.494 0.001 0.0044 0.494 0.0044
1707909938.3257 0.501 0.001 0.0029 0.501 0.0029
1707909938.3333 0.508 0.001 0.0000 0.508 0.0000
1707909938.3420 0.517 0.001 -0.0015 0.517 -0.0015
1707909938.3504 0.524 0.001 0.0015 0.524 0.0015
1707909938.3580 0.529 0.001 0.0015 0.529 0.0015
1707909938.3658 0.534 0.001 0.0029 0.534 0.0029
1707909938.3738 0.540 0.001 0.0015 0.540 0.0015
1707909938.3813 0.548 0.001 0.0000 0.548 0.0000
1707909938.3900 0.556 0.001 -0.0015 0.556 -0.0015
1707909938.3973 0.563 0.001 0.0000 0.563 0.0000
1707909938.4059 0.568 0.001 0.0000 0.568 0.0000
1707909938.4141 0.574 0.001 -0.0015 0.574 -0.0015
1707909938.4222 0.582 0.001 0.0000 0.582 0.0000
1707909938.4298 0.591 0.001 0.0044 0.591 0.0044
1707909938.4373 0.599 0.001 0.0029 0.599 0.0029
1707909938.4458 0.606 0.001 0.0029 0.606 0.0029
1707909938.4534 0.611 0.001 0.0029 0.611 0.0029
1707909938.4623 0.617 0.001 0.0029 0.617 0.0029
1707909938.4693 0.624 0.001 0.0044 0.624 0.0044
1707909938.4779 0.632 0.001 0.0058 0.632 0.0058
1707909938.4857 0.640 0.001 0.0058 0.640 0.0058
1707909938.4938 0.646 0.001 0.0029 0.646 0.0029
1707909938.5013 0.652 0.001 0.0015 0.652 0.0015
1707909938.5100 0.659 0.001 -0.0015 0.659 -0.0015
1707909938.5172 0.668 0.001 -0.0029 0.668 -0.0029
1707909938.5258 0.678 0.001 -0.0015 0.678 -0.0015
1707909938.5337 0.687 0.001 0.0000 0.687 0.0000
1707909938.5418 0.693 0.001 -0.0044 0.693 -0.0044
1707909938.5493 0.699 0.001 -0.0058 0.699 -0.0058
1707909938.5579 0.705 0.001 -0.0102 0.705 -0.0102
1707909938.5652 0.714 0.001 -0.0131 0.714 -0.0131
1707909938.5739 0.724 0.001 -0.0102 0.724 -0.0102
1707909938.5818 0.732 0.000 -0.0088 0.732 -0.0088
1707909938.5899 0.738 0.000 -0.0088 0.738 -0.0088
1707909938.5974 0.745 0.000 -0.0073 0.745 -0.0073
1707909938.6060 0.752 0.000 -0.0073 0.752 -0.0073
1707909938.6133 0.761 0.000 -0.0088 0.761 -0.0088
1707909938.6213 0.771 0.000 -0.0102 0.771 -0.0102
1707909938.6299 0.778 0.000 -0.0088 0.778 -0.0088
1707909938.6379 0.784 0.000 -0.0117 0.784 -0.0117
1707909938.6455 0.791 -0.000 -0.0161 0.791 -0.0161
1707909938.6540 0.800 -0.000 -0.0161 0.800 -0.0161
1707909938.6614 0.809 -0.000 -0.0175 0.809 -0.0175
1707909938.6694 0.818 -0.001 -0.0131 0.818 -0.0131
1707909938.6780 0.825 -0.001 -0.0131 0.825 -0.0131
1707909938.6861 0.832 -0.001 -0.0131 0.832 -0.0131
1707909938.6937 0.839 -0.001 -0.0131 0.839 -0.0131
1707909938.7013 0.848 -0.001 -0.0146 0.848 -0.0146
1707909938.7098 0.856 -0.001 -0.0146 0.856 -0.0146
1707909938.7177 0.864 -0.001 -0.0117 0.864 -0.0117
1707909938.7252 0.871 -0.001 -0.0102 0.871 -0.0102
1707909938.7333 0.879 -0.001 -0.0073 0.879 -0.0073
1707909938.7420 0.887 -0.001 -0.0088 0.887 -0.0088
1707909938.7495 0.896 -0.001 -0.0088 0.896 -0.0088
1707909938.7579 0.905 -0.001 -0.0058 0.905 -0.0058
1707909938.7659 0.914 -0.002 -0.0073 0.914 -0.0073
1707909938.7736 0.921 -0.002 -0.0073 0.921 -0.0073
1707909938.7816 0.927 -0.002 -0.0088 0.927 -0.0088
1707909938.7903 0.933 -0.002 -0.0161 0.933 -0.0161
1707909938.7978 0.941 -0.002 -0.0234 0.941 -0.0234
1707909938.8052 0.948 -0.002 -0.0365 0.948 -0.0365
1707909938.8142 0.955 -0.002 -0.0497 0.955 -0.0497
1707909938.8217 0.960 -0.003 -0.0570 0.960 -0.0570
1707909938.8298 0.966 -0.003 -0.0599 0.966 -0.0599
1707909938.8374 0.972 -0.003 -0.0657 0.972 -0.0657
1707909938.8454 0.979 -0.004 -0.0716 0.979 -0.0716
1707909938.8535 0.986 -0.004 -0.0774 0.986 -0.0774
1707909938.8614 0.991 -0.005 -0.0818 0.992 -0.0818
1707909938.8700 0.997 -0.005 -0.0862 0.997 -0.0862
1707909938.8780 1.002 -0.006 -0.0906 1.003 -0.0906
1707909938.8856 1.009 -0.006 -0.0979 1.009 -0.0979
1707909938.8936 1.016 -0.007 -0.1008 1.017 -0.1008
1707909938.9017 1.024 -0.008 -0.0993 1.024 -0.0993
1707909938.9096 1.030 -0.008 -0.1008 1.030 -0.1008
1707909938.9174 1.036 -0.009 -0.1066 1.036 -0.1066
1707909938.9255 1.043 -0.010 -0.1110 1.043 -0.1110
1707909938.9341 1.051 -0.011 -0.1096 1.052 -0.1096
1707909938.9420 1.060 -0.012 -0.1081 1.061 -0.1081
1707909938.9501 1.069 -0.013 -0.1023 1.069 -0.1023
1707909938.9576 1.076 -0.013 -0.0935 1.077 -0.0935
1707909938.9656 1.084 -0.014 -0.0906 1.085 -0.0906
1707909938.9736 1.093 -0.015 -0.0877 1.094 -0.0877
1707909938.9816 1.103 -0.016 -0.0818 1.104 -0.0818
1707909938.9902 1.113 -0.017 -0.0760 1.114 -0.0760
1707909938.9982 1.122 -0.017 -0.0730 1.123 -0.0730
1707909939.0057 1.129 -0.018 -0.0657 1.129 -0.0657
1707909939.0137 1.135 -0.018 -0.0628 1.136 -0.0628
1707909939.0218 1.143 -0.019 -0.0599 1.144 -0.0599
1707909939.0297 1.151 -0.019 -0.0599 1.151 -0.0599
1707909939.0372 1.159 -0.020 -0.0555 1.160 -0.0555
1707909939.0454 1.168 -0.020 -0.0526 1.169 -0.0526
1707909939.0540 1.176 -0.020 -0.0511 1.176 -0.0511
1707909939.0619 1.183 -0.021 -0.0497 1.184 -0.0497
1707909939.0703 1.190 -0.021 -0.0526 1.191 -0.0526
1707909939.0779 1.197 -0.022 -0.0599 1.198 -0.0599
1707909939.0855 1.206 -0.022 -0.0614 1.207 -0.0614
1707909939.0935 1.215 -0.023 -0.0570 1.216 -0.0570
1707909939.1023 1.222 -0.023 -0.0526 1.223 -0.0526
1707909939.1098 1.229 -0.023 -0.0526 1.230 -0.0526
1707909939.1175 1.236 -0.024 -0.0555 1.237 -0.0555
1707909939.1260 1.244 -0.024 -0.0599 1.245 -0.0599
1707909939.1336 1.253 -0.025 -0.0614 1.254 -0.0614
1707909939.1417 1.262 -0.025 -0.0628 1.263 -0.0628
1707909939.1492 1.270 -0.026 -0.0599 1.271 -0.0599
1707909939.1579 1.278 -0.026 -0.0497 1.279 -0.0497
1707909939.1655 1.286 -0.027 -0.0438 1.287 -0.0438
1707909939.1741 1.294 -0.027 -0.0424 1.295 -0.0424
1707909939.1818 1.302 -0.027 -0.0409 1.303 -0.0409
1707909939.1899 1.311 -0.028 -0.0365 1.312 -0.0365
1707909939.1974 1.319 -0.028 -0.0321 1.320 -0.0321
1707909939.2053 1.327 -0.028 -0.0321 1.328 -0.0321
1707909939.2137 1.335 -0.028 -0.0278 1.336 -0.0278
1707909939.2213 1.343 -0.029 -0.0234 1.344 -0.0234
1707909939.2300 1.351 -0.029 -0.0219 1.352 -0.0219
1707909939.2380 1.359 -0.029 -0.0205 1.360 -0.0205
1707909939.2456 1.367 -0.029 -0.0175 1.368 -0.0175
1707909939.2535 1.375 -0.029 -0.0131 1.376 -0.0131
1707909939.2619 1.383 -0.029 -0.0102 1.384 -0.0102
1707909939.2694 1.390 -0.029 -0.0102 1.391 -0.0102
1707909939.2780 1.396 -0.030 -0.0088 1.397 -0.0088
1707909939.2861 1.402 -0.030 -0.0161 1.404 -0.0161
1707909939.2936 1.409 -0.030 -0.0292 1.410 -0.0292
1707909939.3016 1.415 -0.030 -0.0468 1.416 -0.0468
1707909939.3096 1.420 -0.030 -0.0599 1.421 -0.0599
1707909939.3175 1.424 -0.031 -0.0687 1.425 -0.0687
1707909939.3261 1.429 -0.031 -0.0818 1.430 -0.0818
1707909939.3342 1.434 -0.031 -0.0891 1.435 -0.0891
1707909939.3421 1.440 -0.032 -0.0847 1.441 -0.0847
1707909939.3498 1.446 -0.032 -0.0774 1.447 -0.0774
1707909939.3578 1.451 -0.033 -0.0745 1.453 -0.0745
1707909939.3658 1.456 -0.033 -0.0774 1.457 -0.0774
1707909939.3735 1.461 -0.033 -0.0877 1.462 -0.0877
1707909939.3815 1.467 -0.034 -0.0950 1.468 -0.0950
1707909939.3894 1.472 -0.035 -0.0979 1.473 -0.0979
1707909939.3980 1.476 -0.035 -0.0964 1.478 -0.0964
1707909939.4061 1.479 -0.035 -0.1023 1.481 -0.1023
1707909939.4135 1.483 -0.036 -0.1154 1.484 -0.1154
1707909939.4213 1.487 -0.036 -0.1329 1.488 -0.1329
1707909939.4299 1.491 -0.037 -0.1490 1.492 -0.1490
1707909939.4375 1.494 -0.037 -0.1592 1.496 -0.1592
1707909939.4453 1.498 -0.038 -0.1563 1.500 -0.1563
1707909939.4534 1.504 -0.039 -0.1446 1.505 -0.1446
1707909939.4625 1.510 -0.040 -0.1329 1.511 -0.1329
1707909939.4702 1.516 -0.040 -0.1227 1.517 -0.1227
1707909939.4777 1.520 -0.041 -0.1213 1.522 -0.1213
1707909939.4855 1.523 -0.041 -0.1286 1.525 -0.1286
1707909939.4933 1.526 -0.042 -0.1432 1.528 -0.1432
1707909939.5015 1.529 -0.042 -0.1622 1.531 -0.1622
1707909939.5103 1.533 -0.043 -0.1724 1.535 -0.1724
1707909939.5183 1.538 -0.044 -0.1695 1.540 -0.1695
1707909939.5258 1.543 -0.044 -0.1592 1.545 -0.1592
1707909939.5335 1.547 -0.045 -0.1505 1.549 -0.1505
1707909939.5420 1.552 -0.046 -0.1432 1.554 -0.1432
1707909939.5499 1.556 -0.046 -0.1446 1.558 -0.1446
1707909939.5582 1.561 -0.047 -0.1490 1.563 -0.1490
1707909939.5658 1.566 -0.048 -0.1534 1.569 -0.1534
1707909939.5736 1.570 -0.049 -0.1563 1.573 -0.1563
1707909939.5817 1.573 -0.049 -0.1622 1.575 -0.1622
1707909939.5898 1.577 -0.050 -0.1680 1.579 -0.1680
1707909939.5976 1.580 -0.050 -0.1695 1.583 -0.1695
1707909939.6058 1.584 -0.051 -0.1739 1.586 -0.1739
1707909939.6133 1.586 -0.051 -0.1855 1.588 -0.1855
1707909939.6222 1.587 -0.051 -0.1972 1.590 -0.1972
1707909939.6293 1.588 -0.052 -0.2089 1.591 -0.2089
1707909939.6373 1.590 -0.052 -0.2235 1.593 -0.2235
1707909939.6462 1.592 -0.052 -0.2352 1.594 -0.2352
1707909939.6533 1.592 -0.053 -0.2425 1.595 -0.2425
1707909939.6618 1.593 -0.053 -0.2484 1.596 -0.2484
1707909939.6696 1.595 -0.053 -0.2469 1.598 -0.2469
1707909939.6777 1.597 -0.054 -0.2440 1.600 -0.2440
1707909939.6858 1.600 -0.054 -0.2411 1.602 -0.2411
1707909939.6936 1.601 -0.055 -0.2381 1.603 -0.2381
1707909939.7020 1.601 -0.055 -0.2411 1.604 -0.2411
1707909939.7101 1.602 -0.055 -0.2425 1.605 -0.2425
1707909939.7181 1.604 -0.056 -0.2469 1.607 -0.2469
1707909939.7262 1.606 -0.056 -0.2513 1.609 -0.2513
1707909939.7333 1.606 -0.056 -0.2527 1.609 -0.2527
1707909939.7421 1.607 -0.056 -0.2542 1.610 -0.2542
1707909939.7495 1.608 -0.057 -0.2542 1.611 -0.2542
1707909939.7576 1.610 -0.057 -0.2557 1.613 -0.2557
1707909939.7655 1.612 -0.057 -0.2571 1.615 -0.2571
1707909939.7737 1.613 -0.058 -0.2600 1.616 -0.2600
1707909939.7818 1.613 -0.058 -0.2644 1.616 -0.2644
1707909939.7899 1.613 -0.058 -0.2703 1.616 -0.2703
1707909939.7980 1.614 -0.058 -0.2776 1.617 -0.2776
1707909939.8061 1.614 -0.058 -0.2805 1.617 -0.2805
1707909939.8140 1.614 -0.058 -0.2820 1.618 -0.2820
1707909939.8221 1.614 -0.058 -0.2834 1.617 -0.2834
1707909939.8302 1.614 -0.058 -0.2863 1.617 -0.2863
1707909939.8382 1.614 -0.058 -0.2878 1.618 -0.2878
1707909939.8452 1.615 -0.058 -0.2834 1.618 -0.2834
1707909939.8533 1.615 -0.058 -0.2805 1.618 -0.2805
1707909939.8623 1.616 -0.059 -0.2761 1.619 -0.2761
1707909939.8693 1.616 -0.059 -0.2747 1.619 -0.2747
1707909939.8774 1.616 -0.059 -0.2732 1.619 -0.2732
1707909939.8854 1.616 -0.059 -0.2717 1.620 -0.2717
1707909939.8935 1.616 -0.059 -0.2717 1.620 -0.2717
1707909939.9017 1.616 -0.059 -0.2703 1.620 -0.2703
1707909939.9096 1.617 -0.059 -0.2703 1.620 -0.2703
1707909939.9179 1.616 -0.059 -0.2732 1.620 -0.2732
1707909939.9263 1.616 -0.059 -0.2776 1.619 -0.2776
1707909939.9340 1.615 -0.059 -0.2834 1.619 -0.2834
1707909939.9421 1.615 -0.058 -0.2893 1.618 -0.2893
1707909939.9502 1.615 -0.058 -0.2907 1.618 -0.2907
1707909939.9580 1.615 -0.058 -0.2922 1.618 -0.2922
1707909939.9652 1.615 -0.058 -0.2922 1.618 -0.2922
1707909939.9735 1.615 -0.058 -0.2922 1.618 -0.2922
1707909939.9813 1.615 -0.058 -0.2922 1.618 -0.2922
1707909939.9894 1.615 -0.058 -0.2922 1.618 -0.2922
1707909939.9975 1.615 -0.058 -0.2922 1.618 -0.2922
1707909940.0052 1.615 -0.058 -0.2922 1.618 -0.2922
1707909940.0136 1.615 -0.058 -0.2922 1.618 -0.2922
1707909940.0219 1.615 -0.058 -0.2937 1.618 -0.2936
1707909940.0297 1.614 -0.058 -0.2951 1.618 -0.2951
1707909940.0378 1.614 -0.058 -0.2966 1.618 -0.2966
1707909940.0459 1.614 -0.058 -0.2980 1.617 -0.2980
1707909940.0537 1.614 -0.058 -0.2980 1.617 -0.2980
1707909940.0622 1.614 -0.058 -0.2980 1.617 -0.2980
1707909940.0692 1.614 -0.058 -0.2995 1.617 -0.2995
1707909940.0781 1.614 -0.058 -0.2995 1.617 -0.2995
1707909940.0862 1.614 -0.058 -0.2995 1.617 -0.2995
1707909940.0933 1.614 -0.058 -0.2995 1.617 -0.2995
1707909940.1021 1.614 -0.058 -0.2980 1.617 -0.2980
1707909940.1094 1.613 -0.058 -0.2922 1.616 -0.2922
1707909940.1177 1.612 -0.058 -0.2907 1.615 -0.2907
1707909940.1255 1.611 -0.057 -0.2878 1.614 -0.2878
1707909940.1336 1.610 -0.057 -0.2863 1.613 -0.2863
1707909940.1417 1.609 -0.057 -0.2834 1.612 -0.2834
1707909940.1497 1.607 -0.056 -0.2820 1.610 -0.2820
1707909940.1578 1.605 -0.055 -0.2805 1.608 -0.2805
1707909940.1660 1.603 -0.055 -0.2805 1.606 -0.2805
1707909940.1738 1.602 -0.054 -0.2805 1.604 -0.2805
1707909940.1819 1.599 -0.054 -0.2820 1.602 -0.2820
1707909940.1900 1.598 -0.053 -0.2893 1.600 -0.2893
1707909940.1980 1.596 -0.053 -0.3010 1.599 -0.3010
1707909940.2060 1.595 -0.053 -0.3126 1.598 -0.3126
1707909940.2132 1.594 -0.052 -0.3243 1.596 -0.3243
1707909940.2221 1.592 -0.052 -0.3360 1.595 -0.3360
1707909940.2302 1.591 -0.051 -0.3477 1.593 -0.3477
1707909940.2383 1.590 -0.051 -0.3594 1.592 -0.3594
1707909940.2453 1.588 -0.050 -0.3725 1.590 -0.3725
1707909940.2539 1.587 -0.050 -0.3842 1.589 -0.3842
1707909940.2618 1.585 -0.049 -0.3988 1.587 -0.3988
1707909940.2699 1.584 -0.048 -0.4120 1.585 -0.4120
1707909940.2774 1.582 -0.048 -0.4251 1.584 -0.4251
1707909940.2854 1.581 -0.047 -0.4397 1.582 -0.4397
1707909940.2934 1.579 -0.046 -0.4544 1.580 -0.4544
1707909940.3021 1.577 -0.045 -0.4704 1.578 -0.4704
1707909940.3097 1.576 -0.044 -0.4850 1.577 -0.4850
1707909940.3180 1.574 -0.043 -0.5011 1.575 -0.5011
1707909940.3255 1.572 -0.043 -0.5201 1.573 -0.5201
1707909940.3335 1.571 -0.042 -0.5362 1.571 -0.5362
1707909940.3416 1.569 -0.041 -0.5537 1.569 -0.5537
1707909940.3502 1.568 -0.040 -0.5742 1.567 -0.5742
1707909940.3578 1.566 -0.039 -0.5946 1.565 -0.5946
1707909940.3661 1.565 -0.038 -0.6121 1.564 -0.6121
1707909940.3737 1.563 -0.037 -0.6297 1.562 -0.6297
1707909940.3816 1.562 -0.035 -0.6487 1.560 -0.6487
1707909940.3897 1.560 -0.034 -0.6677 1.558 -0.6677
1707909940.3983 1.559 -0.033 -0.6866 1.556 -0.6866
1707909940.4060 1.557 -0.032 -0.7042 1.554 -0.7042
1707909940.4136 1.556 -0.030 -0.7232 1.552 -0.7232
1707909940.4215 1.554 -0.029 -0.7392 1.550 -0.7392
1707909940.4301 1.553 -0.028 -0.7568 1.548 -0.7568
1707909940.4381 1.551 -0.027 -0.7728 1.546 -0.7728
1707909940.4457 1.550 -0.025 -0.7889 1.544 -0.7889
1707909940.4533 1.549 -0.024 -0.8050 1.542 -0.8050
1707909940.4616 1.547 -0.022 -0.8225 1.541 -0.8225
1707909940.4696 1.546 -0.021 -0.8415 1.539 -0.8415
1707909940.4783 1.545 -0.020 -0.8620 1.537 -0.8620
1707909940.4853 1.544 -0.018 -0.8824 1.535 -0.8824
1707909940.4939 1.542 -0.017 -0.9029 1.533 -0.9029
1707909940.5015 1.541 -0.015 -0.9262 1.531 -0.9262
1707909940.5099 1.540 -0.013 -0.9511 1.529 -0.9511
1707909940.5178 1.539 -0.012 -0.9745 1.527 -0.9745
1707909940.5253 1.538 -0.010 -0.9978 1.525 -0.9978
1707909940.5335 1.537 -0.009 -1.0241 1.523 -1.0241
1707909940.5421 1.536 -0.007 -1.0490 1.522 -1.0490
1707909940.5496 1.535 -0.006 -1.0738 1.520 -1.0738
1707909940.5581 1.534 -0.004 -1.1001 1.518 -1.1001
1707909940.5660 1.534 -0.003 -1.1264 1.516 -1.1264
1707909940.5735 1.533 -0.001 -1.1512 1.515 -1.1512
1707909940.5816 1.532 -0.000 -1.1746 1.513 -1.1746
1707909940.5902 1.532 0.002 -1.2009 1.512 -1.2009
1707909940.5978 1.531 0.003 -1.2257 1.510 -1.2257
1707909940.6053 1.531 0.004 -1.2506 1.509 -1.2506
1707909940.6133 1.530 0.005 -1.2725 1.508 -1.2725
1707909940.6220 1.530 0.006 -1.2973 1.507 -1.2973
1707909940.6300 1.530 0.008 -1.3192 1.505 -1.3192
1707909940.6377 1.530 0.008 -1.3411 1.505 -1.3411
1707909940.6457 1.529 0.009 -1.3645 1.503 -1.3645
1707909940.6537 1.529 0.010 -1.3850 1.502 -1.3850
1707909940.6616 1.529 0.011 -1.4069 1.502 -1.4069
1707909940.6693 1.529 0.012 -1.4288 1.501 -1.4288
1707909940.6774 1.529 0.013 -1.4493 1.500 -1.4493
1707909940.6861 1.529 0.014 -1.4712 1.499 -1.4712
1707909940.6941 1.529 0.015 -1.4916 1.498 -1.4916
1707909940.7022 1.529 0.015 -1.5106 1.497 -1.5106
1707909940.7098 1.529 0.016 -1.5311 1.497 -1.5311
1707909940.7177 1.528 0.017 -1.5515 1.496 -1.5515
1707909940.7259 1.528 0.018 -1.5720 1.495 -1.5720
1707909940.7335 1.528 0.018 -1.5895 1.495 -1.5895
1707909940.7415 1.529 0.019 -1.6085 1.494 -1.6085
1707909940.7496 1.529 0.020 -1.6275 1.493 -1.6275
1707909940.7582 1.529 0.021 -1.6436 1.492 -1.6436
1707909940.7661 1.529 0.021 -1.6611 1.492 -1.6611
1707909940.7742 1.529 0.022 -1.6801 1.491 -1.6801
1707909940.7822 1.529 0.023 -1.6976 1.490 -1.6976
1707909940.7898 1.529 0.023 -1.7137 1.490 -1.7137
1707909940.7980 1.529 0.024 -1.7312 1.489 -1.7312
1707909940.8056 1.529 0.024 -1.7488 1.489 -1.7488
1707909940.8135 1.529 0.024 -1.7663 1.488 -1.7663
1707909940.8216 1.529 0.025 -1.7824 1.488 -1.7824
1707909940.8295 1.529 0.025 -1.7999 1.487 -1.7999
1707909940.8382 1.529 0.025 -1.8160 1.487 -1.8160
1707909940.8462 1.529 0.026 -1.8320 1.487 -1.8320
1707909940.8538 1.530 0.026 -1.8481 1.487 -1.8481
1707909940.8616 1.530 0.026 -1.8627 1.487 -1.8627
1707909940.8700 1.530 0.026 -1.8773 1.486 -1.8773
1707909940.8777 1.530 0.026 -1.8919 1.486 -1.8919
1707909940.8853 1.530 0.026 -1.9065 1.486 -1.9065
1707909940.8934 1.530 0.026 -1.9211 1.486 -1.9211
