% Pose without folding and reset (log_20240216_141552.331/log_pose_abs.txt)
% 1 	Time (sec)
% 2,3 	Position x,y (m)
% 4 	heading (rad)
% 5 	Driven distance (m) - signed
% 6 	Turned angle (rad) - signed
1708089353.6159 0.000 0.000 0.0000 0.000 0.0000
1708089353.6235 0.000 0.000 0.0000 0.000 0.0000
1708089353.6313 0.000 0.000 0.0000 0.000 0.0000
1708089353.6393 0.000 0.000 0.0015 0.000 0.0015
1708089353.6475 0.001 0.000 0.0015 0.001 0.0015
1708089353.6555 0.002 0.000 0.0015 0.002 0.0015
1708089353.6635 0.002 0.000 0.0015 0.002 0.0015
1708089353.6710 0.003 0.000 0.0015 0.003 0.0015
1708089353.6791 0.004 0.000 0.0029 0.004 0.0029
1708089353.6872 0.006 0.000 0.0015 0.006 0.0015
1708089353.6954 0.007 0.000 0.0029 0.007 0.0029
1708089353.7031 0.008 0.000 0.0029 0.008 0.0029
1708089353.7113 0.010 0.000 0.0029 0.010 0.0029
1708089353.7195 0.012 0.000 0.0029 0.012 0.0029
1708089353.7275 0.014 0.000 0.0029 0.014 0.0029
1708089353.7355 0.016 0.000 0.0044 0.016 0.0044
1708089353.7436 0.018 0.000 0.0029 0.018 0.0029
1708089353.7514 0.021 0.000 0.0029 0.021 0.0029
1708089353.7597 0.023 0.000 0.0029 0.023 0.0029
1708089353.7678 0.026 0.000 0.0029 0.026 0.0029
1708089353.7757 0.028 0.000 0.0029 0.028 0.0029
1708089353.7838 0.031 0.000 0.0029 0.031 0.0029
1708089353.7919 0.034 0.000 0.0029 0.034 0.0029
1708089353.7996 0.037 0.000 0.0029 0.037 0.0029
1708089353.8079 0.039 0.000 0.0015 0.039 0.0015
1708089353.8160 0.042 0.000 0.0000 0.042 0.0000
1708089353.8239 0.044 0.000 -0.0015 0.044 -0.0015
1708089353.8321 0.047 0.000 0.0000 0.047 0.0000
1708089353.8402 0.049 0.000 0.0000 0.049 0.0000
1708089353.8480 0.052 0.000 -0.0015 0.052 -0.0015
1708089353.8553 0.054 0.000 -0.0015 0.054 -0.0015
1708089353.8634 0.057 0.000 0.0000 0.057 0.0000
1708089353.8713 0.059 0.000 0.0015 0.059 0.0015
1708089353.8794 0.062 0.000 0.0015 0.062 0.0015
1708089353.8875 0.064 0.000 0.0015 0.064 0.0015
1708089353.8955 0.067 0.000 0.0000 0.067 0.0000
1708089353.9035 0.070 0.000 -0.0029 0.070 -0.0029
1708089353.9116 0.072 0.000 -0.0015 0.072 -0.0015
1708089353.9194 0.074 0.000 0.0000 0.074 0.0000
1708089353.9276 0.077 0.000 0.0000 0.077 0.0000
1708089353.9357 0.079 0.000 -0.0029 0.079 -0.0029
1708089353.9437 0.081 0.000 -0.0029 0.081 -0.0029
1708089353.9518 0.084 0.000 -0.0015 0.084 -0.0015
1708089353.9600 0.086 0.000 0.0015 0.086 0.0015
1708089353.9678 0.089 0.000 0.0015 0.089 0.0015
1708089353.9762 0.091 0.000 -0.0015 0.091 -0.0015
1708089353.9835 0.094 0.000 -0.0029 0.094 -0.0029
1708089353.9912 0.096 0.000 0.0000 0.096 0.0000
1708089353.9995 0.098 0.000 0.0015 0.098 0.0015
1708089354.0076 0.100 0.000 0.0000 0.100 0.0000
1708089354.0154 0.103 0.000 -0.0015 0.103 -0.0015
1708089354.0237 0.105 0.000 0.0015 0.105 0.0015
1708089354.0318 0.107 0.000 0.0015 0.107 0.0015
1708089354.0400 0.109 0.000 0.0000 0.109 0.0000
1708089354.0476 0.112 0.000 -0.0029 0.112 -0.0029
1708089354.0552 0.114 0.000 -0.0015 0.114 -0.0015
1708089354.0634 0.117 0.000 0.0029 0.117 0.0029
1708089354.0717 0.119 0.000 0.0015 0.119 0.0015
1708089354.0798 0.121 0.000 -0.0044 0.121 -0.0044
1708089354.0879 0.124 0.000 -0.0029 0.124 -0.0029
1708089354.0958 0.126 0.000 0.0015 0.126 0.0015
1708089354.1034 0.129 0.000 0.0029 0.129 0.0029
1708089354.1114 0.131 0.000 -0.0015 0.131 -0.0015
1708089354.1194 0.133 0.000 -0.0058 0.133 -0.0058
1708089354.1273 0.136 0.000 -0.0044 0.136 -0.0044
1708089354.1354 0.138 0.000 0.0015 0.138 0.0015
1708089354.1440 0.141 0.000 0.0029 0.141 0.0029
1708089354.1520 0.143 0.000 0.0000 0.143 0.0000
1708089354.1600 0.146 0.000 -0.0029 0.146 -0.0029
1708089354.1673 0.148 0.000 0.0000 0.148 0.0000
1708089354.1752 0.151 0.000 0.0029 0.151 0.0029
1708089354.1833 0.153 0.000 0.0029 0.153 0.0029
1708089354.1920 0.155 0.000 -0.0015 0.155 -0.0015
1708089354.1998 0.157 0.000 -0.0044 0.157 -0.0044
1708089354.2079 0.160 0.000 -0.0015 0.160 -0.0015
1708089354.2161 0.163 0.000 0.0029 0.163 0.0029
1708089354.2233 0.165 0.000 0.0029 0.165 0.0029
1708089354.2313 0.167 0.000 0.0000 0.167 0.0000
1708089354.2400 0.170 0.000 -0.0029 0.170 -0.0029
1708089354.2477 0.172 0.000 0.0000 0.172 0.0000
1708089354.2562 0.175 0.000 0.0029 0.175 0.0029
1708089354.2639 0.177 0.000 0.0029 0.177 0.0029
1708089354.2720 0.179 0.000 0.0000 0.179 0.0000
1708089354.2802 0.182 0.000 -0.0029 0.182 -0.0029
1708089354.2880 0.184 0.000 0.0000 0.184 0.0000
1708089354.2956 0.187 0.000 0.0029 0.187 0.0029
1708089354.3043 0.189 0.000 0.0044 0.189 0.0044
1708089354.3120 0.191 0.000 0.0000 0.191 0.0000
1708089354.3197 0.194 0.000 -0.0044 0.194 -0.0044
1708089354.3281 0.196 0.000 0.0000 0.196 0.0000
1708089354.3358 0.199 0.000 0.0044 0.199 0.0044
1708089354.3436 0.201 0.000 0.0044 0.201 0.0044
1708089354.3517 0.203 0.000 0.0000 0.203 0.0000
1708089354.3593 0.206 0.000 -0.0029 0.206 -0.0029
1708089354.3678 0.208 0.000 -0.0029 0.208 -0.0029
1708089354.3762 0.211 0.000 0.0029 0.211 0.0029
1708089354.3837 0.213 0.000 0.0044 0.213 0.0044
1708089354.3915 0.215 0.000 0.0000 0.215 0.0000
1708089354.3994 0.218 0.000 -0.0044 0.218 -0.0044
1708089354.4079 0.220 0.000 -0.0015 0.220 -0.0015
1708089354.4154 0.223 0.000 0.0058 0.223 0.0058
1708089354.4238 0.225 0.000 0.0058 0.225 0.0058
1708089354.4313 0.227 0.000 0.0015 0.227 0.0015
1708089354.4393 0.230 0.000 -0.0015 0.230 -0.0015
1708089354.4474 0.232 0.000 0.0015 0.232 0.0015
1708089354.4562 0.234 0.000 0.0073 0.234 0.0073
1708089354.4638 0.237 0.000 0.0044 0.237 0.0044
1708089354.4721 0.239 0.000 0.0000 0.239 0.0000
1708089354.4792 0.242 0.000 -0.0015 0.242 -0.0015
1708089354.4881 0.244 0.000 0.0029 0.244 0.0029
1708089354.4952 0.246 0.000 0.0044 0.246 0.0044
1708089354.5039 0.248 0.000 0.0029 0.248 0.0029
1708089354.5115 0.251 0.000 -0.0015 0.251 -0.0015
1708089354.5195 0.253 0.000 0.0000 0.253 0.0000
1708089354.5280 0.256 0.000 0.0044 0.256 0.0044
1708089354.5355 0.258 0.000 0.0044 0.258 0.0044
1708089354.5434 0.260 0.000 -0.0015 0.260 -0.0015
1708089354.5519 0.263 0.000 -0.0015 0.263 -0.0015
1708089354.5594 0.265 0.000 0.0015 0.265 0.0015
1708089354.5673 0.268 0.000 0.0029 0.268 0.0029
1708089354.5754 0.270 0.000 0.0015 0.270 0.0015
1708089354.5839 0.272 0.000 -0.0029 0.272 -0.0029
1708089354.5919 0.275 0.000 -0.0029 0.275 -0.0029
1708089354.5993 0.278 0.000 0.0000 0.278 0.0000
1708089354.6078 0.280 0.000 0.0000 0.280 0.0000
1708089354.6161 0.282 0.000 -0.0015 0.282 -0.0015
1708089354.6241 0.285 0.000 -0.0044 0.285 -0.0044
