% Pose without folding and reset (log_20240214_130156.701/log_pose_abs.txt)
% 1 	Time (sec)
% 2,3 	Position x,y (m)
% 4 	heading (rad)
% 5 	Driven distance (m) - signed
% 6 	Turned angle (rad) - signed
1707912116.8297 0.000 0.000 0.0000 0.000 0.0000
1707912116.8366 0.000 0.000 0.0000 0.000 0.0000
1707912116.8450 0.000 0.000 0.0000 0.000 0.0000
1707912116.8526 0.001 0.000 0.0058 0.001 0.0058
1707912116.8606 0.004 0.000 0.0058 0.004 0.0058
1707912116.8690 0.006 0.000 0.0044 0.006 0.0044
1707912116.8768 0.007 0.000 0.0029 0.007 0.0029
1707912116.8850 0.009 0.000 0.0029 0.009 0.0029
1707912116.8926 0.011 0.000 0.0029 0.011 0.0029
1707912116.9013 0.014 0.000 0.0044 0.014 0.0044
1707912116.9094 0.017 0.000 0.0044 0.017 0.0044
1707912116.9168 0.019 0.000 0.0029 0.019 0.0029
1707912116.9248 0.022 0.000 0.0044 0.022 0.0044
1707912116.9334 0.026 0.000 0.0044 0.026 0.0044
1707912116.9408 0.029 0.000 0.0029 0.029 0.0029
1707912116.9493 0.032 0.000 0.0044 0.032 0.0044
1707912116.9575 0.036 0.000 0.0044 0.036 0.0044
1707912116.9653 0.040 0.000 0.0029 0.040 0.0029
1707912116.9726 0.044 0.000 0.0044 0.044 0.0044
1707912116.9814 0.048 0.000 0.0058 0.048 0.0058
