% Pose without folding and reset (log_20240216_141557.710/log_pose_abs.txt)
% 1 	Time (sec)
% 2,3 	Position x,y (m)
% 4 	heading (rad)
% 5 	Driven distance (m) - signed
% 6 	Turned angle (rad) - signed
1708089358.7376 0.000 0.000 0.0000 0.000 0.0000
1708089358.7454 0.000 0.000 0.0000 0.000 0.0000
1708089358.7541 -0.000 -0.000 0.0015 -0.000 0.0015
1708089358.7618 -0.000 -0.000 0.0029 -0.000 0.0029
1708089358.7695 -0.000 -0.000 0.0015 -0.000 0.0015
1708089358.7775 -0.000 -0.000 0.0015 -0.000 0.0015
1708089358.7861 -0.000 -0.000 0.0015 -0.000 0.0015
1708089358.7942 -0.000 -0.000 0.0015 -0.000 0.0015
1708089358.8021 -0.000 -0.000 0.0015 -0.000 0.0015
1708089358.8096 -0.000 -0.000 0.0015 -0.000 0.0015
1708089358.8181 -0.000 -0.000 0.0015 -0.000 0.0015
1708089358.8261 -0.000 -0.000 0.0015 -0.000 0.0015
1708089358.8335 -0.000 -0.000 0.0015 -0.000 0.0015
1708089358.8421 -0.000 -0.000 0.0015 -0.000 0.0015
1708089358.8502 -0.000 -0.000 0.0015 -0.000 0.0015
1708089358.8579 -0.000 -0.000 0.0015 -0.000 0.0015
1708089358.8655 -0.000 -0.000 0.0015 -0.000 0.0015
1708089358.8738 -0.000 -0.000 0.0015 -0.000 0.0015
1708089358.8818 -0.000 -0.000 0.0015 -0.000 0.0015
1708089358.8893 -0.000 -0.000 0.0015 -0.000 0.0015
1708089358.8975 0.000 0.000 0.0000 0.000 0.0000
1708089358.9060 0.001 0.000 0.0044 0.001 0.0044
1708089358.9133 0.002 0.000 0.0073 0.002 0.0073
1708089358.9223 0.002 0.000 0.0058 0.002 0.0058
1708089358.9300 0.003 0.000 0.0058 0.003 0.0058
1708089358.9373 0.004 0.000 0.0058 0.004 0.0058
1708089358.9455 0.005 0.000 0.0044 0.005 0.0044
1708089358.9540 0.006 0.000 0.0044 0.006 0.0044
1708089358.9613 0.007 0.000 0.0058 0.007 0.0058
1708089358.9693 0.009 0.000 0.0044 0.009 0.0044
1708089358.9783 0.011 0.000 0.0029 0.011 0.0029
1708089358.9859 0.013 0.000 0.0044 0.013 0.0044
1708089358.9943 0.015 0.000 0.0044 0.015 0.0044
1708089359.0020 0.017 0.000 0.0044 0.017 0.0044
1708089359.0096 0.019 0.000 0.0029 0.019 0.0029
1708089359.0181 0.021 0.000 0.0029 0.021 0.0029
1708089359.0257 0.024 0.000 0.0029 0.024 0.0029
1708089359.0343 0.026 0.000 0.0015 0.026 0.0015
1708089359.0416 0.029 0.000 0.0029 0.029 0.0029
1708089359.0503 0.031 0.000 0.0000 0.031 0.0000
1708089359.0579 0.034 0.000 -0.0015 0.034 -0.0015
1708089359.0653 0.036 0.000 -0.0029 0.036 -0.0029
1708089359.0740 0.039 0.000 -0.0015 0.039 -0.0015
1708089359.0816 0.041 0.000 0.0000 0.041 0.0000
1708089359.0897 0.043 0.000 -0.0015 0.043 -0.0015
1708089359.0977 0.046 0.000 -0.0058 0.046 -0.0058
1708089359.1053 0.049 0.000 -0.0058 0.049 -0.0058
1708089359.1139 0.052 0.000 -0.0015 0.052 -0.0015
1708089359.1215 0.054 0.000 0.0015 0.054 0.0015
1708089359.1301 0.056 0.000 -0.0015 0.056 -0.0015
1708089359.1383 0.059 0.000 -0.0058 0.059 -0.0058
1708089359.1463 0.062 0.000 -0.0044 0.062 -0.0044
1708089359.1533 0.064 0.000 0.0015 0.064 0.0015
1708089359.1614 0.066 0.000 0.0015 0.066 0.0015
1708089359.1700 0.068 0.000 -0.0044 0.068 -0.0044
1708089359.1777 0.071 0.000 -0.0073 0.071 -0.0073
1708089359.1858 0.074 -0.000 -0.0058 0.074 -0.0058
1708089359.1937 0.076 -0.000 -0.0044 0.076 -0.0044
1708089359.2017 0.078 -0.000 -0.0029 0.078 -0.0029
1708089359.2097 0.080 -0.000 -0.0044 0.080 -0.0044
1708089359.2173 0.083 -0.000 -0.0058 0.083 -0.0058
1708089359.2260 0.086 -0.000 -0.0029 0.086 -0.0029
1708089359.2341 0.088 -0.000 0.0000 0.088 0.0000
1708089359.2417 0.090 -0.000 -0.0015 0.090 -0.0015
1708089359.2503 0.092 -0.000 -0.0029 0.092 -0.0029
1708089359.2574 0.095 -0.000 -0.0029 0.095 -0.0029
1708089359.2661 0.097 -0.000 -0.0015 0.097 -0.0015
1708089359.2737 0.099 -0.000 0.0000 0.099 0.0000
1708089359.2817 0.102 -0.000 0.0000 0.102 0.0000
1708089359.2897 0.104 -0.000 -0.0015 0.104 -0.0015
1708089359.2977 0.107 -0.000 -0.0015 0.107 -0.0015
1708089359.3057 0.109 -0.000 0.0000 0.109 0.0000
1708089359.3143 0.111 -0.000 0.0015 0.111 0.0015
1708089359.3218 0.113 -0.000 0.0015 0.113 0.0015
1708089359.3299 0.116 -0.000 -0.0015 0.116 -0.0015
1708089359.3378 0.119 -0.000 -0.0015 0.119 -0.0015
1708089359.3457 0.121 -0.000 0.0000 0.121 0.0000
1708089359.3538 0.123 -0.000 0.0000 0.123 0.0000
1708089359.3613 0.125 -0.000 -0.0015 0.125 -0.0015
1708089359.3699 0.128 -0.000 -0.0015 0.128 -0.0015
1708089359.3773 0.131 -0.000 0.0000 0.131 0.0000
1708089359.3859 0.133 -0.000 0.0015 0.133 0.0015
1708089359.3937 0.135 -0.000 0.0015 0.135 0.0015
1708089359.4019 0.137 -0.000 0.0015 0.137 0.0015
1708089359.4093 0.140 -0.000 0.0015 0.140 0.0015
1708089359.4179 0.143 -0.000 -0.0015 0.143 -0.0015
1708089359.4253 0.145 -0.000 -0.0029 0.145 -0.0029
1708089359.4339 0.147 -0.000 0.0000 0.147 0.0000
1708089359.4417 0.149 -0.000 0.0029 0.149 0.0029
1708089359.4497 0.152 -0.000 0.0029 0.152 0.0029
1708089359.4573 0.154 -0.000 0.0000 0.154 0.0000
1708089359.4659 0.157 -0.000 -0.0015 0.157 -0.0015
1708089359.4744 0.159 -0.000 0.0000 0.159 0.0000
1708089359.4819 0.162 -0.000 0.0029 0.162 0.0029
1708089359.4894 0.164 -0.000 0.0015 0.164 0.0015
1708089359.4978 0.167 -0.000 -0.0015 0.167 -0.0015
1708089359.5054 0.169 -0.000 -0.0044 0.169 -0.0044
1708089359.5133 0.171 -0.000 -0.0029 0.171 -0.0029
1708089359.5214 0.173 -0.000 0.0015 0.173 0.0015
1708089359.5300 0.176 -0.000 0.0029 0.176 0.0029
1708089359.5376 0.178 -0.000 -0.0015 0.178 -0.0015
1708089359.5459 0.181 -0.000 -0.0044 0.181 -0.0044
1708089359.5534 0.183 -0.000 0.0000 0.183 0.0000
1708089359.5613 0.185 -0.000 0.0044 0.185 0.0044
1708089359.5693 0.187 -0.000 0.0044 0.187 0.0044
1708089359.5780 0.190 -0.000 0.0029 0.190 0.0029
1708089359.5855 0.193 -0.000 0.0015 0.193 0.0015
1708089359.5938 0.195 -0.000 0.0000 0.195 0.0000
1708089359.6017 0.197 -0.000 0.0000 0.197 0.0000
1708089359.6103 0.199 -0.000 0.0015 0.199 0.0015
1708089359.6173 0.202 -0.000 0.0015 0.202 0.0015
1708089359.6260 0.205 -0.000 0.0015 0.205 0.0015
1708089359.6335 0.207 -0.000 0.0015 0.207 0.0015
1708089359.6419 0.209 -0.000 0.0029 0.209 0.0029
1708089359.6498 0.211 -0.000 0.0015 0.211 0.0015
1708089359.6573 0.214 -0.000 -0.0029 0.214 -0.0029
1708089359.6654 0.216 -0.000 -0.0015 0.216 -0.0015
1708089359.6740 0.219 -0.000 0.0029 0.219 0.0029
1708089359.6815 0.221 -0.000 0.0029 0.221 0.0029
1708089359.6896 0.223 -0.000 -0.0015 0.223 -0.0015
1708089359.6979 0.226 -0.000 -0.0015 0.226 -0.0015
1708089359.7054 0.228 -0.000 0.0015 0.228 0.0015
1708089359.7134 0.231 -0.000 0.0029 0.231 0.0029
1708089359.7221 0.233 -0.000 0.0015 0.233 0.0015
1708089359.7296 0.235 -0.000 -0.0029 0.235 -0.0029
1708089359.7373 0.238 -0.000 -0.0058 0.238 -0.0058
1708089359.7463 0.240 -0.000 0.0000 0.240 0.0000
1708089359.7538 0.242 -0.000 0.0029 0.242 0.0029
1708089359.7619 0.245 -0.000 0.0000 0.245 0.0000
1708089359.7696 0.247 -0.000 -0.0044 0.247 -0.0044
1708089359.7782 0.250 -0.000 -0.0044 0.250 -0.0044
1708089359.7855 0.252 -0.000 0.0000 0.252 0.0000
1708089359.7934 0.255 -0.000 0.0015 0.255 0.0015
1708089359.8019 0.257 -0.000 0.0000 0.257 0.0000
1708089359.8100 0.260 -0.000 -0.0029 0.260 -0.0029
1708089359.8175 0.262 -0.000 -0.0058 0.262 -0.0058
1708089359.8261 0.264 -0.000 -0.0029 0.264 -0.0029
1708089359.8335 0.267 -0.000 0.0000 0.267 0.0000
1708089359.8426 0.269 -0.000 0.0000 0.269 0.0000
1708089359.8501 0.272 -0.000 -0.0044 0.272 -0.0044
1708089359.8583 0.274 -0.000 -0.0044 0.274 -0.0044
1708089359.8663 0.277 -0.000 0.0000 0.277 0.0000
1708089359.8733 0.279 -0.000 0.0000 0.279 0.0000
1708089359.8814 0.281 -0.000 -0.0015 0.281 -0.0015
